H[m];Qmaxpost[m3/s];Qlow_param[m3/s];Qhigh_param[m3/s];Qlow_total[m3/s];Qhigh_total[m3/s];
1.0;0.0;0.0;0.0;-2.45693;2.45663;
1.07;0.0;0.0;0.0;-2.45693;2.45663;
1.14;0.0;0.0;0.0;-2.45693;2.45663;
1.21;0.0;0.0;0.0;-2.45693;2.45663;
1.28;0.0;0.0;0.0;-2.45693;2.45663;
1.35;0.0;0.0;0.0;-2.45693;2.45663;
1.42;0.0;0.0;0.0;-2.45693;2.45663;
1.49;0.0;0.0;0.0;-2.45693;2.45663;
1.56;0.0;0.0;0.0;-2.45693;2.45663;
1.63;0.0;0.0;0.0;-2.45693;2.45663;
1.7;0.0;0.0;0.0;-2.45693;2.45663;
1.77;0.0;0.0;0.0246922;-2.45693;2.45663;
1.84;0.53046;0.0384376;1.02517;-2.08212;2.90748;
1.91;2.34505;1.39481;3.06119;-0.217678;4.73803;
1.98;5.12127;3.97861;5.95381;2.27588;7.49776;
2.05;8.72991;7.47541;9.65741;5.6842;11.1038;
2.12;13.0951;11.8123;14.0458;10.0334;15.6118;
2.19;18.1642;16.8823;19.1362;15.1255;20.7394;
2.26;23.8978;22.5436;24.9188;20.905;26.5031;
2.33;30.2645;28.923;31.3429;27.2684;33.0161;
2.4;37.2385;35.9396;38.3612;34.365;40.1621;
2.47;44.7981;43.5595;45.9606;41.683;47.8188;
2.54;52.9246;51.722;54.1487;49.806;56.1044;
2.61;61.6016;60.3333;62.87;58.3119;65.0068;
2.68;70.8147;69.594;72.1681;67.3242;74.4622;
2.75;80.5508;79.288;81.9326;76.9299;84.4436;
2.82;90.7984;89.4302;92.2986;87.0411;94.8397;
2.89;101.547;100.009;103.354;97.5743;105.949;
2.96;112.786;111.078;114.771;108.619;117.452;
3.03;124.508;122.662;126.75;120.255;129.442;
3.1;136.703;134.695;139.267;132.436;141.846;
3.17;149.364;147.161;152.33;144.807;154.767;
3.24;162.484;160.043;165.881;157.706;168.33;
3.31;176.057;173.244;179.907;170.945;182.118;
3.38;190.075;186.769;194.401;184.773;196.573;
3.45;204.534;200.855;209.325;198.772;211.499;
3.52;219.426;215.53;224.808;213.183;226.888;
3.59;234.748;230.586;240.636;227.79;242.726;
3.66;250.493;245.769;256.941;242.857;259.219;
3.73;266.658;261.335;273.69;258.232;275.998;
3.8;283.237;277.279;291.037;273.986;293.204;
3.87;300.227;293.598;308.787;290.413;311.058;
3.94;317.623;310.613;326.946;306.958;329.125;
4.01;335.42;327.885;345.537;324.015;347.85;
4.08;353.616;345.398;364.522;341.408;367.008;
4.15;372.207;363.274;383.926;359.222;386.396;
4.22;391.188;381.51;403.904;377.35;406.145;
4.29;410.557;400.101;424.282;395.785;426.351;
4.36;430.311;419.045;444.962;414.714;446.849;
4.43;450.446;438.338;466.058;434.044;467.939;
4.5;470.959;457.977;487.568;453.946;489.337;
4.57;491.847;477.96;509.49;474.07;511.231;
4.64;513.108;498.282;531.89;494.415;533.661;
4.71;534.738;518.903;554.556;515.076;556.528;
4.78;556.735;539.938;577.696;536.082;579.714;
4.85;579.097;561.265;601.236;557.43;603.283;
4.92;601.821;582.921;625.175;579.116;627.272;
4.99;624.904;605.011;649.447;601.14;651.647;
5.06;648.344;627.256;674.024;623.497;676.404;
5.13;672.139;649.844;698.979;646.187;701.542;
5.2;696.287;672.795;724.277;669.207;727.057;
5.27;720.785;696.063;750.013;692.555;752.948;
5.34;745.631;719.648;776.111;715.884;779.212;
5.41;770.824;743.546;803.111;739.423;805.848;
5.48;796.36;767.755;830.508;763.262;832.852;
5.55;822.239;792.274;858.197;787.401;860.223;
5.62;848.459;817.101;886.003;811.836;887.959;
5.69;875.016;842.234;914.185;836.566;916.111;
5.76;901.911;867.67;942.742;861.59;944.982;
5.83;929.14;893.409;971.671;887.046;974.34;
5.9;956.702;919.448;1000.97;912.988;1004.08;
5.97;984.596;945.786;1030.64;939.229;1033.53;
6.04;1012.82;972.421;1060.66;965.767;1063.26;
6.11;1041.37;999.351;1090.98;992.601;1093.34;
6.18;1070.25;1026.58;1121.85;1019.73;1124.01;
6.25;1099.45;1054.09;1152.98;1047.15;1155.16;
6.32;1128.98;1081.9;1184.47;1074.86;1186.66;
6.39;1158.83;1109.99;1216.32;1102.86;1218.52;
6.46;1189.0;1138.38;1248.54;1131.15;1250.73;
6.53;1219.49;1167.05;1281.1;1159.73;1283.29;
6.6;1250.29;1196.0;1314.03;1188.59;1316.2;
6.67;1281.41;1225.24;1347.31;1217.73;1349.46;
6.74;1312.85;1254.76;1380.94;1247.16;1383.21;
6.81;1344.6;1284.56;1414.92;1276.87;1417.03;
6.88;1376.66;1314.64;1449.26;1306.85;1451.33;
6.95;1409.04;1345.0;1483.79;1337.12;1485.97;
7.02;1441.72;1375.64;1518.67;1367.66;1520.96;
7.09;1474.71;1406.55;1553.88;1398.48;1556.28;
7.16;1508.01;1437.81;1589.43;1429.58;1591.95;
7.23;1541.62;1469.38;1625.31;1460.95;1627.82;
7.3;1575.53;1501.22;1661.38;1492.59;1663.86;
7.37;1609.74;1533.34;1697.73;1524.5;1700.23;
7.44;1644.26;1565.73;1734.42;1556.48;1736.92;
7.51;1679.07;1598.62;1771.42;1588.67;1773.94;
7.58;1714.19;1631.8;1808.9;1621.12;1811.28;
7.65;1749.61;1665.26;1846.84;1653.83;1849.12;
7.72;1785.32;1698.99;1885.11;1686.79;1887.92;
7.79;1821.34;1733.01;1923.72;1720.02;1927.07;
7.86;1857.64;1767.3;1963.14;1753.5;1966.51;
7.93;1894.25;1801.86;2002.36;1787.24;2005.47;
8.0;1931.15;1836.2;2041.86;1821.23;2044.74;
