H[m];Qmaxpost[m3/s];Qlow_param[m3/s];Qhigh_param[m3/s];Qlow_total[m3/s];Qhigh_total[m3/s];
0.0;0.0;0.0;0.0;-1.22202;1.19015;
0.02;0.0;0.0;0.0;-1.22202;1.19015;
0.04;0.0;0.0;0.0;-1.22202;1.19015;
0.06;0.0;0.0;0.0;-1.22202;1.19015;
0.08;0.0;0.0;0.0;-1.22202;1.19015;
0.1;0.0;0.0;0.0;-1.22202;1.19015;
0.12;0.0;0.0;0.0111244;-1.22202;1.19015;
0.14;0.0;0.0;0.0544878;-1.20901;1.19015;
0.16;0.00206637;0.0;0.120943;-1.17105;1.19015;
0.18;0.0375186;0.0;0.2054;-1.1173;1.21535;
0.2;0.101887;0.00809955;0.310395;-1.0719;1.27273;
0.22;0.189258;0.0538778;0.432467;-0.998452;1.36459;
0.24;0.2968;0.125525;0.562347;-0.913758;1.49017;
0.26;0.422706;0.21585;0.713433;-0.818459;1.65951;
0.28;0.565677;0.326283;0.878931;-0.713066;1.85059;
0.3;0.724719;0.455615;1.05304;-0.562316;2.05773;
0.32;0.899029;0.608741;1.23843;-0.409523;2.28035;
0.34;1.08795;0.779146;1.43511;-0.29144;2.52865;
0.36;1.29091;0.965754;1.64284;-0.164552;2.82381;
0.38;1.50743;1.15697;1.8749;-0.020258;3.12252;
0.4;1.73709;1.35993;2.12312;0.15026;3.37682;
0.42;1.9795;1.57855;2.37473;0.33851;3.6772;
0.44;2.23434;1.81276;2.65302;0.536478;4.02008;
0.46;2.50129;2.05814;2.93601;0.743954;4.38058;
0.48;2.78008;2.31535;3.23076;0.960745;4.75828;
0.5;3.07045;2.57735;3.53608;1.18667;5.15584;
0.52;3.37217;2.85716;3.84633;1.40529;5.53047;
0.54;3.68502;3.14864;4.17566;1.58273;5.91986;
0.56;4.00881;3.43962;4.51876;1.8183;6.35239;
0.58;4.34334;3.75288;4.88495;2.06324;6.80807;
0.6;4.68844;4.06974;5.23844;2.24156;7.29925;
0.62;5.04395;4.39289;5.60808;2.42361;7.80483;
0.64;5.40971;4.74412;5.99015;2.61118;8.3024;
0.66;5.78557;5.08847;6.37765;2.83187;8.83994;
0.68;6.1714;5.4065;6.78398;3.04494;9.39187;
0.7;6.56707;5.77172;7.20065;3.27952;9.95626;
0.72;6.97244;6.15748;7.62373;3.52054;10.5171;
0.74;7.38741;6.5329;8.07582;3.80762;11.0918;
0.76;7.81186;6.88958;8.54942;4.05072;11.6801;
0.78;8.24567;7.26352;9.03292;4.29046;12.282;
0.8;8.68876;7.68274;9.50016;4.54742;12.8973;
0.82;9.14101;8.11877;9.97689;4.81951;13.5257;
0.84;9.60234;8.52821;10.4765;5.09763;14.1673;
0.86;10.0727;8.94383;10.9724;5.38171;14.8218;
0.88;10.5519;9.3702;11.4767;5.70574;15.4891;
0.9;11.0399;9.83528;12.041;6.0183;16.296;
0.92;11.5366;10.2935;12.7349;6.33669;16.9976;
0.94;12.042;10.8839;13.3593;6.66086;17.8002;
0.96;12.556;11.4252;14.1913;6.99076;18.537;
0.98;13.0785;12.1067;15.5808;7.69567;19.5485;
1.0;13.6881;12.9111;17.0502;8.13904;21.2684;
1.02;15.1204;13.7251;18.5451;8.97345;23.2213;
1.04;16.615;14.7647;20.1116;9.65714;25.2115;
1.06;18.1711;16.0233;21.7335;10.7293;27.2088;
1.08;19.7881;17.5114;23.4105;11.8432;29.418;
1.1;21.4654;19.1025;25.1816;12.9547;31.6292;
1.12;23.2023;20.7553;27.0039;13.9909;33.8679;
1.14;24.9983;22.4596;28.8456;15.0372;36.1719;
1.16;26.8529;24.1373;30.7394;16.1161;38.5421;
1.18;28.7656;25.9427;32.7676;17.2273;41.221;
1.2;30.7359;27.7022;34.8971;18.3867;43.7969;
1.22;32.7632;29.5619;36.9973;19.6453;46.4434;
1.24;34.8473;31.4841;39.1486;20.9371;49.1597;
1.26;36.9876;33.4589;41.3506;22.2618;52.1404;
1.28;39.1838;35.4984;43.5267;23.6191;55.2708;
1.3;41.4355;37.624;45.8133;25.0086;58.3967;
1.32;43.7422;39.7743;48.2455;26.3128;61.4402;
1.34;46.1037;41.876;50.6567;27.5914;64.8501;
1.36;48.5195;44.0875;53.1058;28.8958;68.3289;
1.38;50.9894;46.3167;55.603;30.226;71.6465;
1.4;53.5131;48.648;58.2895;31.5817;75.2528;
1.42;56.0901;51.0296;61.053;33.0056;78.9459;
1.44;58.7202;53.4602;63.8724;34.5183;82.7176;
1.46;61.4032;55.9103;66.6187;36.0607;86.5675;
1.48;64.1387;58.4174;69.4484;37.6905;90.2777;
1.5;66.9264;60.9814;72.4697;39.3631;93.7452;
1.52;69.7661;63.5413;75.5471;41.0995;97.2707;
1.54;72.6576;66.2039;78.596;42.8697;100.854;
1.56;75.6005;69.0131;81.6749;44.6721;104.565;
1.58;78.5946;71.6703;84.8059;46.5066;108.556;
1.6;81.6397;74.2474;88.0604;48.3729;112.612;
1.62;84.7356;77.0587;91.3139;50.271;116.733;
1.64;87.8819;79.8777;94.5101;52.2006;120.919;
1.66;91.0786;82.649;97.8478;54.1616;125.168;
1.68;94.3253;85.3761;101.237;56.154;129.482;
1.7;97.6219;88.3442;104.676;58.1775;133.86;
1.72;100.968;91.3568;108.11;60.232;138.301;
1.74;104.364;94.4134;111.674;62.3174;142.806;
1.76;107.809;97.4314;115.292;64.4182;147.373;
1.78;111.303;100.488;118.941;66.464;152.167;
1.8;114.846;103.585;122.632;68.5373;157.069;
1.82;118.437;106.799;126.256;70.638;162.038;
1.84;122.078;110.014;130.109;72.7661;167.076;
1.86;125.766;113.311;134.013;74.9214;172.182;
1.88;129.503;116.52;137.969;77.1038;177.356;
1.9;133.287;119.886;141.991;79.3131;182.597;
1.92;137.12;123.195;146.127;81.5494;187.905;
1.94;141.0;126.567;150.147;83.8125;193.28;
1.96;144.927;130.001;154.309;86.1023;198.722;
1.98;148.902;133.568;158.523;88.4478;204.231;
2.0;152.924;137.182;162.787;90.8512;209.806;
