H[m];Qmaxpost[m3/s];Qlow_param[m3/s];Qhigh_param[m3/s];Qlow_total[m3/s];Qhigh_total[m3/s];
58.0;0.0;0.0;0.0;-1.10646;1.05657;
58.05;0.0;0.0;0.0;-1.10646;1.05657;
58.1;0.0;0.0;0.0;-1.10646;1.05657;
58.15;0.0;0.0;0.0;-1.10646;1.05657;
58.2;0.0;0.0;0.0;-1.10646;1.05657;
58.25;0.0;0.0;0.0;-1.10646;1.05657;
58.3;0.0;0.0;0.0;-1.10646;1.05657;
58.35;0.0;0.0;0.0;-1.10646;1.05657;
58.4;0.0;0.0;0.0;-1.10646;1.05657;
58.45;0.0;0.0;0.0;-1.10646;1.05657;
58.5;0.0;0.0;0.0;-1.10646;1.05657;
58.55;0.0;0.0;0.0382505;-1.10646;1.05871;
58.6;0.110262;0.0182813;0.29567;-1.00589;1.2198;
58.65;0.477709;0.307354;0.730413;-0.675514;1.61847;
58.7;1.02749;0.819015;1.3139;-0.144134;2.26011;
58.75;1.73162;1.49137;2.0211;0.536781;3.03141;
58.8;2.57402;2.30329;2.85964;1.33086;3.94788;
58.85;3.54371;3.2526;3.82868;2.25795;4.99594;
58.9;4.63252;4.32018;4.90617;3.24552;6.16878;
58.95;5.83403;5.49966;6.12226;4.31955;7.46093;
59.0;7.14299;6.79917;7.44643;5.51484;8.92208;
59.05;8.55499;8.1937;8.86627;6.74963;10.4609;
59.1;10.0663;9.64274;10.3935;8.10544;12.1247;
59.15;11.6736;11.1933;12.0363;9.48748;13.912;
59.2;13.374;12.7936;13.7795;10.997;15.7803;
59.25;15.165;14.513;15.6115;12.564;17.7137;
59.3;17.0441;16.3271;17.5319;14.2341;19.8079;
59.35;19.0095;18.1915;19.5334;15.9779;22.0179;
59.4;21.059;20.101;21.6219;17.7648;24.321;
59.45;23.191;22.133;23.8294;19.5912;26.7152;
59.5;25.4038;24.2411;26.1192;21.5552;29.188;
59.55;27.696;26.3937;28.5216;23.5455;31.7673;
59.6;30.0661;28.6215;30.9721;25.5956;34.381;
59.65;32.5128;30.9373;33.5191;27.716;37.1076;
59.7;35.035;33.3099;36.1641;29.906;39.9849;
59.75;37.6314;35.7971;38.8823;32.1647;42.8962;
59.8;40.3009;38.3451;41.6245;34.4912;45.8817;
59.85;43.0426;40.956;44.5042;36.8832;48.9464;
59.9;45.8555;43.5871;47.4456;39.3449;52.0889;
59.95;48.7386;46.2834;50.4932;41.8707;55.3084;
60.0;51.6911;49.0441;53.6006;44.4652;58.6169;
60.05;54.7121;51.8997;56.782;47.117;62.0446;
60.1;57.8009;54.8302;60.0213;49.8362;65.5491;
60.15;60.9567;57.8269;63.2876;52.6188;69.1211;
60.2;64.1787;60.8893;66.6216;55.4641;72.7597;
60.25;67.4662;64.012;70.0228;58.3716;76.5153;
60.3;70.8187;67.1821;73.5289;61.3409;80.2784;
60.35;74.2353;70.3663;77.1053;64.3714;84.0613;
60.4;77.7156;73.6358;80.7561;67.4327;87.9185;
60.45;81.2589;76.9871;84.4927;70.5166;91.8974;
60.5;84.8647;80.3575;88.2987;73.6819;95.948;
60.55;88.5323;83.8096;92.1736;76.9243;100.07;
60.6;92.2613;87.3198;96.1167;80.2227;104.262;
60.65;96.0511;90.8583;100.102;83.5767;108.524;
60.7;99.9013;94.4435;104.128;86.986;112.856;
60.75;103.811;98.0904;108.217;90.45;117.256;
60.8;107.781;101.789;112.396;93.9685;121.725;
60.85;111.809;105.541;116.683;97.541;126.262;
60.9;115.896;109.348;121.036;101.167;130.866;
60.95;120.041;113.208;125.454;104.716;135.538;
61.0;124.243;117.121;129.936;108.375;140.276;
61.05;128.503;121.087;134.499;112.157;145.08;
61.1;132.819;125.105;139.095;115.992;149.949;
61.15;137.192;129.219;143.77;119.879;154.884;
61.2;141.621;133.411;148.552;123.819;159.912;
61.25;146.106;137.658;153.389;127.811;165.026;
61.3;150.646;141.908;158.307;131.855;170.205;
61.35;155.241;146.142;163.305;135.951;175.448;
61.4;159.89;150.423;168.226;140.097;180.757;
61.45;164.594;154.752;173.197;144.191;186.129;
61.5;169.352;159.128;178.274;148.326;191.565;
61.55;174.164;163.573;183.435;152.507;197.064;
61.6;179.029;168.097;188.649;156.733;202.626;
61.65;183.947;172.67;193.934;161.003;208.251;
61.7;188.918;177.293;199.281;165.429;213.939;
61.75;193.941;181.963;204.682;169.931;219.688;
61.8;199.017;186.701;210.143;174.482;225.5;
61.85;204.144;191.493;215.663;179.083;231.372;
61.9;209.324;196.319;221.242;183.736;237.265;
61.95;214.554;201.146;226.899;188.452;243.184;
62.0;219.836;206.035;232.618;193.18;249.16;
62.05;225.168;210.992;238.395;197.984;255.194;
62.1;230.552;215.995;244.231;202.873;261.284;
62.15;235.985;221.015;250.114;207.812;267.431;
62.2;241.469;226.033;256.05;212.78;273.634;
62.25;247.003;231.171;262.044;217.645;279.893;
62.3;252.586;236.45;268.094;222.489;286.208;
62.35;258.219;241.705;274.201;227.355;292.578;
62.4;263.901;246.985;280.365;232.261;299.003;
62.45;269.631;252.309;286.584;237.207;305.483;
62.5;275.411;257.679;292.786;242.193;312.017;
62.55;281.24;263.094;299.033;247.219;318.699;
62.6;287.116;268.553;305.39;252.284;325.529;
62.65;293.041;274.057;311.842;257.389;332.419;
62.7;299.014;279.606;318.369;262.533;339.369;
62.75;305.034;285.198;324.952;267.715;346.346;
62.8;311.102;290.835;331.59;272.937;353.248;
62.85;317.218;296.515;338.284;278.197;360.204;
62.9;323.381;302.239;345.034;283.496;367.264;
62.95;329.59;308.007;351.82;288.834;374.462;
63.0;335.847;313.818;358.643;294.214;381.717;
