H[m];Qmaxpost[m3/s];Qlow_param[m3/s];Qhigh_param[m3/s];Qlow_total[m3/s];Qhigh_total[m3/s];
2.0;49.7514;39.5954;56.3666;-0.611578;92.0162;
2.11;62.6406;51.7901;69.3404;11.726;105.016;
2.22;76.4502;65.1013;83.1522;24.4663;118.718;
2.33;91.1171;79.4276;97.9952;37.6191;133.135;
2.44;106.589;94.6495;113.584;51.9866;149.722;
2.55;122.823;110.714;129.849;67.4363;167.709;
2.66;139.781;127.575;146.389;83.6448;184.601;
2.77;157.431;145.101;164.095;100.579;203.133;
2.88;175.743;163.447;182.36;117.939;222.478;
2.99;194.694;182.579;201.345;136.381;242.805;
3.1;214.259;201.976;220.845;155.455;263.357;
3.21;234.418;222.035;241.196;175.027;284.261;
3.32;255.152;242.631;261.922;195.206;305.948;
3.43;276.445;263.662;283.176;215.973;328.668;
3.54;298.281;285.758;305.412;236.219;352.746;
3.65;320.645;308.18;328.075;258.436;376.897;
3.76;343.524;331.273;351.176;281.657;400.129;
3.87;366.906;354.842;374.985;304.539;425.225;
3.98;390.778;378.363;398.981;326.272;451.799;
4.09;415.131;402.409;424.668;348.775;479.028;
4.2;439.953;426.852;450.135;372.642;508.403;
4.31;465.235;451.801;476.125;396.819;538.137;
4.42;490.969;477.156;503.081;422.691;564.558;
4.53;517.145;503.06;530.054;449.029;593.206;
4.64;543.755;529.023;557.73;474.759;623.119;
4.75;570.793;555.712;585.798;500.358;653.553;
4.86;598.25;582.727;614.627;526.346;683.945;
4.97;626.12;609.401;643.923;552.514;713.283;
5.08;654.395;636.562;673.414;578.344;743.016;
5.19;683.071;664.366;703.744;606.139;774.655;
5.3;712.14;692.202;734.545;634.069;807.019;
5.41;741.597;720.739;765.779;661.914;839.829;
5.52;771.436;749.73;797.525;690.115;873.08;
5.63;801.652;778.504;829.137;718.666;906.44;
5.74;832.24;807.727;861.523;747.563;939.893;
5.85;863.195;838.028;894.329;776.681;973.747;
5.96;894.513;868.695;927.548;805.497;1008.0;
6.07;926.188;899.482;961.648;834.651;1042.64;
6.18;958.216;930.261;996.32;864.14;1077.66;
6.29;990.594;961.084;1031.15;893.96;1113.07;
6.4;1023.32;991.869;1066.9;925.117;1149.57;
6.51;1056.38;1024.91;1104.26;957.109;1186.66;
6.62;1089.78;1061.12;1148.6;989.451;1228.53;
6.73;1140.79;1099.57;1191.08;1029.54;1269.14;
6.84;1196.52;1141.44;1245.19;1063.58;1321.33;
6.95;1253.25;1186.34;1300.58;1109.09;1379.71;
7.06;1310.97;1226.57;1357.37;1157.09;1439.51;
7.17;1369.67;1267.46;1416.4;1197.22;1499.48;
7.28;1429.34;1318.06;1477.1;1247.48;1561.97;
7.39;1489.97;1376.44;1538.78;1305.48;1628.23;
7.5;1551.55;1434.77;1604.32;1357.44;1695.23;
7.61;1614.07;1494.0;1669.03;1420.34;1763.26;
7.72;1677.52;1554.15;1733.66;1477.36;1832.87;
7.83;1741.89;1615.81;1802.39;1540.71;1905.08;
7.94;1807.18;1678.76;1871.97;1605.16;1976.42;
8.05;1873.37;1744.11;1948.04;1670.62;2056.11;
8.16;1940.46;1807.36;2020.61;1737.07;2129.11;
8.27;2008.45;1872.4;2093.91;1804.81;2202.24;
8.38;2077.32;1939.47;2165.97;1872.93;2279.35;
8.49;2147.06;2005.13;2240.48;1940.58;2358.56;
8.6;2217.67;2071.64;2317.71;2006.92;2439.3;
8.71;2289.15;2137.99;2398.2;2074.09;2523.29;
8.82;2361.48;2207.41;2479.77;2140.65;2608.37;
8.93;2434.66;2277.69;2563.48;2205.68;2690.9;
9.04;2508.68;2348.76;2648.3;2272.48;2770.28;
9.15;2583.54;2420.64;2730.86;2344.35;2855.7;
9.26;2659.24;2489.55;2816.72;2417.06;2942.13;
9.37;2735.75;2559.55;2904.2;2490.17;3029.56;
9.48;2813.09;2633.16;2991.38;2561.19;3114.8;
9.59;2891.24;2703.86;3080.28;2634.8;3204.6;
9.7;2970.2;2773.97;3169.4;2708.43;3297.8;
9.81;3049.97;2844.71;3261.14;2778.61;3389.17;
9.92;3130.53;2916.25;3353.09;2852.53;3481.51;
10.03;3211.89;2990.86;3446.03;2924.1;3572.71;
10.14;3294.03;3064.52;3539.98;2994.71;3662.01;
10.25;3376.96;3136.74;3634.91;3065.92;3751.86;
10.36;3460.67;3211.25;3730.83;3137.71;3847.56;
10.47;3545.15;3286.74;3826.66;3210.08;3944.93;
10.58;3630.4;3363.31;3923.2;3288.7;4040.2;
10.69;3716.42;3441.51;4020.65;3370.61;4136.35;
10.8;3803.2;3518.79;4119.01;3449.62;4233.36;
10.91;3890.73;3596.62;4218.27;3525.81;4331.25;
11.02;3979.02;3675.59;4318.42;3602.59;4429.99;
11.13;4068.06;3755.19;4419.47;3679.96;4529.6;
11.24;4157.84;3835.4;4521.39;3757.92;4635.97;
11.35;4248.36;3916.23;4624.2;3836.45;4748.4;
11.46;4339.62;3997.67;4727.89;3915.56;4861.9;
11.57;4431.61;4079.72;4832.44;3995.25;4976.46;
11.68;4524.34;4161.31;4939.17;4075.51;5085.92;
11.79;4617.78;4239.98;5047.21;4156.33;5193.87;
11.9;4711.95;4319.71;5156.15;4237.72;5302.7;
12.01;4806.84;4402.99;5266.0;4319.67;5412.39;
12.12;4902.45;4486.84;5376.76;4402.18;5522.95;
12.23;4998.76;4571.26;5488.41;4485.25;5634.38;
12.34;5095.79;4656.23;5600.95;4568.86;5746.66;
12.45;5193.51;4741.77;5714.39;4653.03;5859.8;
12.56;5291.95;4830.29;5828.7;4744.73;5973.78;
12.67;5391.08;4919.73;5943.9;4835.89;6088.62;
12.78;5490.9;5009.78;6059.98;4922.38;6204.29;
12.89;5591.42;5100.43;6176.93;5009.43;6320.8;
13.0;5692.63;5191.68;6294.76;5097.05;6438.15;
